#    s        x        y     Ue/Vinf    Dstar     Theta      Cf       H       H*        P         m          K          tau         Di
   0.00000  1.00000  0.00105  0.90039  0.004864  0.002910  0.001075    1.6716    1.6549  0.00236  0.00438  0.00351
   0.00793  0.99223  0.00262  0.91621  0.004429  0.002725  0.001223    1.6251    1.6694  0.00229  0.00406  0.00350
   0.01918  0.98119  0.00481  0.93706  0.003943  0.002505  0.001421    1.5743    1.6864  0.00220  0.00370  0.00348
   0.03241  0.96821  0.00736  0.95794  0.003535  0.002305  0.001619    1.5335    1.7011  0.00212  0.00339  0.00345
   0.04686  0.95402  0.01009  0.97727  0.003211  0.002136  0.001803    1.5029    1.7127  0.00204  0.00314  0.00341
   0.06190  0.93925  0.01288  0.99450  0.002954  0.001996  0.001967    1.4804    1.7216  0.00197  0.00294  0.00338
   0.07717  0.92423  0.01566  1.00979  0.002748  0.001878  0.002111    1.4636    1.7285  0.00191  0.00277  0.00334
   0.09254  0.90911  0.01840  1.02346  0.002577  0.001776  0.002241    1.4507    1.7338  0.00186  0.00264  0.00330
   0.10794  0.89394  0.02109  1.03584  0.002432  0.001688  0.002358    1.4407    1.7381  0.00181  0.00252  0.00326
   0.12335  0.87875  0.02373  1.04719  0.002306  0.001609  0.002466    1.4328    1.7416  0.00176  0.00241  0.00322
   0.13878  0.86355  0.02632  1.05771  0.002193  0.001538  0.002566    1.4264    1.7444  0.00172  0.00232  0.00317
   0.15421  0.84833  0.02886  1.06755  0.002092  0.001472  0.002661    1.4211    1.7468  0.00168  0.00223  0.00313
   0.16963  0.83310  0.03134  1.07683  0.002000  0.001411  0.002750    1.4168    1.7488  0.00164  0.00215  0.00308
   0.18506  0.81787  0.03377  1.08564  0.001914  0.001354  0.002836    1.4132    1.7504  0.00160  0.00208  0.00303
   0.20050  0.80262  0.03615  1.09406  0.001834  0.001301  0.002918    1.4103    1.7519  0.00156  0.00201  0.00298
   0.21593  0.78736  0.03847  1.10214  0.001759  0.001250  0.002998    1.4078    1.7531  0.00152  0.00194  0.00293
   0.23136  0.77210  0.04075  1.10994  0.001689  0.001201  0.003076    1.4057    1.7541  0.00148  0.00187  0.00288
   0.24679  0.75683  0.04296  1.11750  0.001621  0.001155  0.003153    1.4041    1.7549  0.00144  0.00181  0.00283
   0.26221  0.74156  0.04513  1.12485  0.001557  0.001110  0.003229    1.4027    1.7557  0.00140  0.00175  0.00277
   0.27764  0.72628  0.04724  1.13202  0.001495  0.001066  0.003304    1.4016    1.7563  0.00137  0.00169  0.00272
   0.29306  0.71099  0.04929  1.13905  0.001435  0.001025  0.003378    1.4008    1.7568  0.00133  0.00163  0.00266
   0.30849  0.69570  0.05129  1.14594  0.001377  0.000984  0.003453    1.4002    1.7572  0.00129  0.00158  0.00260
   0.32390  0.68040  0.05324  1.15274  0.001321  0.000944  0.003528    1.3997    1.7576  0.00125  0.00152  0.00254
   0.33932  0.66511  0.05513  1.15944  0.001267  0.000905  0.003603    1.3995    1.7579  0.00122  0.00147  0.00248
   0.35473  0.64981  0.05696  1.16607  0.001214  0.000867  0.003680    1.3994    1.7581  0.00118  0.00142  0.00242
   0.37013  0.63451  0.05873  1.17265  0.001162  0.000830  0.003757    1.3995    1.7582  0.00114  0.00136  0.00235
   0.38553  0.61920  0.06045  1.17919  0.001111  0.000794  0.003836    1.3998    1.7583  0.00110  0.00131  0.00229
   0.40092  0.60390  0.06211  1.18571  0.001061  0.000758  0.003917    1.4001    1.7584  0.00107  0.00126  0.00222
   0.41630  0.58860  0.06370  1.19221  0.001012  0.000722  0.004000    1.4006    1.7584  0.00103  0.00121  0.00215
   0.43168  0.57330  0.06523  1.19870  0.000964  0.000688  0.004087    1.4012    1.7584  0.00099  0.00116  0.00208
   0.44705  0.55800  0.06670  1.20521  0.000916  0.000653  0.004176    1.4019    1.7584  0.00095  0.00110  0.00201
   0.46241  0.54271  0.06810  1.21173  0.000869  0.000619  0.004270    1.4026    1.7584  0.00091  0.00105  0.00194
   0.47776  0.52742  0.06944  1.21829  0.000822  0.000586  0.004369    1.4033    1.7585  0.00087  0.00100  0.00186
   0.49310  0.51213  0.07071  1.22489  0.000776  0.000553  0.004474    1.4040    1.7586  0.00083  0.00095  0.00179
   0.50842  0.49685  0.07191  1.23155  0.000730  0.000520  0.004587    1.4045    1.7588  0.00079  0.00090  0.00171
   0.52374  0.48158  0.07304  1.23826  0.000684  0.000487  0.004711    1.4047    1.7591  0.00075  0.00085  0.00163
   0.53904  0.46631  0.07409  1.24505  0.000639  0.000455  0.004847    1.4045    1.7598  0.00070  0.00080  0.00154
   0.55433  0.45106  0.07506  1.25192  0.000593  0.000422  0.005001    1.4036    1.7607  0.00066  0.00074  0.00146
   0.56960  0.43581  0.07596  1.25886  0.000547  0.000390  0.005177    1.4019    1.7622  0.00062  0.00069  0.00137
   0.58485  0.42058  0.07678  1.26588  0.000501  0.000358  0.005380    1.3992    1.7642  0.00057  0.00063  0.00128
   0.60009  0.40536  0.07751  1.27293  0.000454  0.000325  0.005610    1.3960    1.7665  0.00053  0.00058  0.00119
   0.61531  0.39015  0.07815  1.27995  0.000408  0.000293  0.005851    1.3945    1.7683  0.00048  0.00052  0.00109
   0.63050  0.37497  0.07871  1.28676  0.000365  0.000260  0.006019    1.4033    1.7660  0.00043  0.00047  0.00098
   0.64567  0.35980  0.07917  1.29325  0.000334  0.000229  0.005772    1.4554    1.7465  0.00038  0.00043  0.00087
   0.66082  0.34467  0.07954  1.30039  0.000337  0.000203  0.004263    1.6628    1.6779  0.00034  0.00044  0.00075
   0.67591  0.32957  0.07980  1.31917  0.000443  0.000181  0.001177    2.4504    1.5396  0.00031  0.00058  0.00064
   0.69093  0.31456  0.07996  1.34407  0.000568  0.000163  0.000102    3.4888    1.5320  0.00029  0.00076  0.00061
   0.70577  0.29971  0.08002  1.35349  0.000516  0.000156  0.000189    3.3041    1.5358  0.00029  0.00070  0.00059
   0.72032  0.28517  0.07990  1.36485  0.000451  0.000148  0.000367    3.0363    1.5452  0.00028  0.00062  0.00058
   0.73471  0.27078  0.07956  1.37462  0.000411  0.000142  0.000501    2.8992    1.5522  0.00027  0.00056  0.00057
   0.74902  0.25648  0.07901  1.38311  0.000380  0.000135  0.000619    2.8069    1.5580  0.00026  0.00053  0.00056
   0.76328  0.24224  0.07822  1.39029  0.000356  0.000130  0.000723    2.7423    1.5626  0.00025  0.00049  0.00054
   0.77749  0.22807  0.07721  1.39630  0.000335  0.000124  0.000820    2.6939    1.5664  0.00024  0.00047  0.00053
   0.79166  0.21396  0.07596  1.40125  0.000316  0.000119  0.000911    2.6562    1.5696  0.00023  0.00044  0.00051
   0.80578  0.19992  0.07447  1.40520  0.000300  0.000114  0.000999    2.6261    1.5723  0.00023  0.00042  0.00050
   0.81984  0.18596  0.07274  1.40820  0.000285  0.000109  0.001085    2.6016    1.5745  0.00022  0.00040  0.00048
   0.83385  0.17209  0.07076  1.41026  0.000270  0.000105  0.001171    2.5815    1.5765  0.00021  0.00038  0.00046
   0.84778  0.15834  0.06853  1.41143  0.000257  0.000100  0.001257    2.5650    1.5781  0.00020  0.00036  0.00044
   0.86163  0.14471  0.06604  1.41170  0.000244  0.000095  0.001345    2.5515    1.5794  0.00019  0.00034  0.00042
   0.87538  0.13124  0.06330  1.41108  0.000231  0.000091  0.001436    2.5406    1.5806  0.00018  0.00033  0.00040
   0.88900  0.11796  0.06028  1.40957  0.000218  0.000086  0.001532    2.5319    1.5815  0.00017  0.00031  0.00038
   0.90246  0.10490  0.05701  1.40719  0.000206  0.000081  0.001634    2.5252    1.5822  0.00016  0.00029  0.00036
   0.91569  0.09215  0.05347  1.40393  0.000193  0.000077  0.001746    2.5202    1.5827  0.00015  0.00027  0.00034
   0.92860  0.07980  0.04970  1.39981  0.000180  0.000072  0.001870    2.5166    1.5831  0.00014  0.00025  0.00031
   0.94105  0.06801  0.04572  1.39484  0.000167  0.000067  0.002013    2.5142    1.5833  0.00013  0.00023  0.00029
   0.95282  0.05698  0.04161  1.38907  0.000154  0.000061  0.002179    2.5123    1.5835  0.00012  0.00021  0.00026
   0.96364  0.04697  0.03750  1.38254  0.000141  0.000056  0.002375    2.5102    1.5838  0.00011  0.00020  0.00024
   0.97328  0.03820  0.03351  1.37528  0.000129  0.000051  0.002606    2.5070    1.5841  0.00010  0.00018  0.00021
   0.98159  0.03077  0.02978  1.36724  0.000116  0.000047  0.002877    2.5021    1.5846  0.00009  0.00016  0.00019
   0.98863  0.02462  0.02636  1.35819  0.000105  0.000042  0.003192    2.4947    1.5855  0.00008  0.00014  0.00017
   0.99453  0.01959  0.02327  1.34773  0.000095  0.000038  0.003557    2.4846    1.5866  0.00007  0.00013  0.00015
   0.99952  0.01547  0.02046  1.33523  0.000085  0.000034  0.003978    2.4716    1.5880  0.00006  0.00011  0.00013
   1.00377  0.01208  0.01790  1.31984  0.000076  0.000031  0.004463    2.4561    1.5898  0.00005  0.00010  0.00011
   1.00744  0.00928  0.01553  1.30038  0.000068  0.000028  0.005021    2.4376    1.5920  0.00005  0.00009  0.00010
   1.01065  0.00696  0.01331  1.27517  0.000060  0.000025  0.005659    2.4166    1.5946  0.00004  0.00008  0.00008
   1.01349  0.00504  0.01122  1.24190  0.000053  0.000022  0.006375    2.3929    1.5976  0.00003  0.00007  0.00007
   1.01604  0.00347  0.00921  1.19741  0.000047  0.000020  0.007140    2.3678    1.6008  0.00003  0.00006  0.00005
   1.01835  0.00221  0.00727  1.13734  0.000041  0.000018  0.007926    2.3389    1.6047  0.00002  0.00005  0.00004
   1.02047  0.00124  0.00539  1.05655  0.000037  0.000016  0.008523    2.3147    1.6081  0.00002  0.00004  0.00003
   1.02242  0.00055  0.00356  0.94938  0.000033  0.000014  0.008909    2.2810    1.6131  0.00001  0.00003  0.00002
   1.02425  0.00014  0.00178  0.81256  0.000030  0.000013  0.008468    2.2671    1.6152  0.00001  0.00002  0.00001
   1.02595  0.00000  0.00008  0.64968  0.000027  0.000012  0.007519    2.2355    1.6201  0.00001  0.00002  0.00001
   1.02764  0.00012 -0.00160  0.46227  0.000027  0.000012  0.005471    2.2465    1.6184  0.00000  0.00001  0.00000
   1.02941  0.00054 -0.00332  0.24681  0.000026  0.000011  0.003104    2.2238    1.6220  0.00000  0.00001  0.00000
   1.03126  0.00130 -0.00501  0.02670  0.000029  0.000013  0.000297    2.2295    1.6211  0.00000  0.00000  0.00000
   1.03324  0.00241 -0.00665 -0.17405  0.000029  0.000013  0.001934    2.2295    1.6211  0.00000 -0.00001 -0.00000
   1.03535  0.00385 -0.00820 -0.34172  0.000034  0.000015  0.003062    2.2751    1.6140  0.00000 -0.00001 -0.00000
   1.03765  0.00562 -0.00966 -0.47386  0.000038  0.000017  0.003886    2.2513    1.6176  0.00000 -0.00002 -0.00000
   1.04017  0.00773 -0.01103 -0.57689  0.000045  0.000019  0.003835    2.3073    1.6092  0.00001 -0.00003 -0.00001
   1.04296  0.01020 -0.01233 -0.65624  0.000051  0.000022  0.003860    2.3026    1.6099  0.00001 -0.00003 -0.00001
   1.04611  0.01309 -0.01357 -0.71856  0.000059  0.000025  0.003531    2.3387    1.6048  0.00001 -0.00004 -0.00001
   1.04970  0.01648 -0.01477 -0.76748  0.000067  0.000029  0.003265    2.3517    1.6030  0.00002 -0.00005 -0.00002
   1.05386  0.02048 -0.01593 -0.80654  0.000077  0.000032  0.002926    2.3759    1.5998  0.00002 -0.00006 -0.00003
   1.05877  0.02526 -0.01705 -0.83774  0.000088  0.000037  0.002608    2.3959    1.5972  0.00003 -0.00007 -0.00003
   1.06465  0.03103 -0.01815 -0.86266  0.000100  0.000042  0.002295    2.4180    1.5944  0.00003 -0.00009 -0.00004
   1.07176  0.03807 -0.01919 -0.88221  0.000115  0.000047  0.002003    2.4401    1.5917  0.00004 -0.00010 -0.00005
   1.08035  0.04660 -0.02015 -0.89699  0.000132  0.000054  0.001735    2.4630    1.5890  0.00004 -0.00012 -0.00006
   1.09056  0.05678 -0.02097 -0.90747  0.000151  0.000061  0.001498    2.4858    1.5864  0.00005 -0.00014 -0.00007
   1.10230  0.06850 -0.02162 -0.91424  0.000172  0.000068  0.001297    2.5078    1.5840  0.00006 -0.00016 -0.00008
   1.11528  0.08148 -0.02207 -0.91806  0.000193  0.000076  0.001131    2.5282    1.5818  0.00006 -0.00018 -0.00009
   1.12916  0.09535 -0.02231 -0.91978  0.000215  0.000084  0.000998    2.5464    1.5800  0.00007 -0.00020 -0.00010
   1.14364  0.10983 -0.02239 -0.92011  0.000237  0.000092  0.000891    2.5621    1.5784  0.00008 -0.00022 -0.00011
   1.15852  0.12471 -0.02234 -0.91961  0.000258  0.000100  0.000806    2.5751    1.5771  0.00008 -0.00024 -0.00012
   1.17368  0.13988 -0.02218 -0.91865  0.000278  0.000108  0.000738    2.5853    1.5761  0.00009 -0.00026 -0.00013
   1.18905  0.15524 -0.02196 -0.91750  0.000297  0.000115  0.000684    2.5924    1.5754  0.00010 -0.00027 -0.00014
   1.20458  0.17076 -0.02169 -0.91636  0.000315  0.000121  0.000642    2.5961    1.5751  0.00010 -0.00029 -0.00015
   1.22020  0.18639 -0.02140 -0.91538  0.000332  0.000128  0.000608    2.5963    1.5750  0.00011 -0.00030 -0.00015
   1.23585  0.20204 -0.02111 -0.91467  0.000347  0.000134  0.000584    2.5926    1.5754  0.00011 -0.00032 -0.00016
   1.25147  0.21765 -0.02083 -0.91436  0.000360  0.000139  0.000567    2.5846    1.5762  0.00012 -0.00033 -0.00017
   1.26704  0.23322 -0.02058 -0.91453  0.000372  0.000145  0.000558    2.5720    1.5774  0.00012 -0.00034 -0.00017
   1.28255  0.24873 -0.02036 -0.91532  0.000381  0.000149  0.000556    2.5541    1.5792  0.00012 -0.00035 -0.00018
   1.29802  0.26419 -0.02019 -0.91692  0.000387  0.000153  0.000563    2.5295    1.5817  0.00013 -0.00036 -0.00019
   1.31344  0.27962 -0.02007 -0.91959  0.000390  0.000156  0.000580    2.4969    1.5852  0.00013 -0.00036 -0.00019
   1.32884  0.29502 -0.02002 -0.92446  0.000386  0.000158  0.000624    2.4425    1.5914  0.00014 -0.00036 -0.00020
   1.34424  0.31041 -0.02000 -0.93243  0.000374  0.000158  0.000698    2.3698    1.6006  0.00014 -0.00035 -0.00020
   1.35966  0.32583 -0.01993 -0.93682  0.000383  0.000161  0.000679    2.3811    1.5991  0.00014 -0.00036 -0.00021
   1.37511  0.34129 -0.01981 -0.93998  0.000395  0.000164  0.000646    2.4032    1.5963  0.00015 -0.00037 -0.00022
   1.39060  0.35677 -0.01965 -0.94221  0.000408  0.000168  0.000611    2.4283    1.5931  0.00015 -0.00038 -0.00022
   1.40611  0.37228 -0.01944 -0.94384  0.000421  0.000172  0.000579    2.4516    1.5904  0.00015 -0.00040 -0.00023
   1.42164  0.38781 -0.01919 -0.94503  0.000435  0.000176  0.000550    2.4720    1.5880  0.00016 -0.00041 -0.00024
   1.43720  0.40337 -0.01891 -0.94588  0.000447  0.000180  0.000524    2.4898    1.5860  0.00016 -0.00042 -0.00024
   1.45277  0.41894 -0.01859 -0.94648  0.000460  0.000184  0.000502    2.5051    1.5843  0.00016 -0.00044 -0.00025
   1.46837  0.43453 -0.01825 -0.94687  0.000472  0.000188  0.000482    2.5184    1.5829  0.00017 -0.00045 -0.00025
   1.48398  0.45014 -0.01788 -0.94709  0.000485  0.000192  0.000464    2.5300    1.5817  0.00017 -0.00046 -0.00026
   1.49961  0.46576 -0.01749 -0.94719  0.000496  0.000195  0.000448    2.5401    1.5806  0.00018 -0.00047 -0.00026
   1.51525  0.48140 -0.01708 -0.94717  0.000508  0.000199  0.000434    2.5491    1.5797  0.00018 -0.00048 -0.00027
   1.53091  0.49705 -0.01665 -0.94707  0.000519  0.000203  0.000421    2.5570    1.5789  0.00018 -0.00049 -0.00027
   1.54658  0.51271 -0.01620 -0.94690  0.000530  0.000207  0.000408    2.5640    1.5782  0.00019 -0.00050 -0.00028
   1.56226  0.52839 -0.01575 -0.94668  0.000541  0.000211  0.000397    2.5703    1.5776  0.00019 -0.00051 -0.00028
   1.57796  0.54408 -0.01528 -0.94641  0.000552  0.000214  0.000387    2.5758    1.5770  0.00019 -0.00052 -0.00029
   1.59366  0.55977 -0.01480 -0.94610  0.000563  0.000218  0.000378    2.5807    1.5765  0.00020 -0.00053 -0.00029
   1.60937  0.57548 -0.01431 -0.94578  0.000573  0.000222  0.000369    2.5850    1.5761  0.00020 -0.00054 -0.00030
   1.62509  0.59119 -0.01382 -0.94543  0.000583  0.000225  0.000361    2.5889    1.5757  0.00020 -0.00055 -0.00030
   1.64082  0.60691 -0.01332 -0.94507  0.000593  0.000229  0.000353    2.5922    1.5754  0.00020 -0.00056 -0.00030
   1.65656  0.62264 -0.01282 -0.94470  0.000603  0.000232  0.000346    2.5952    1.5751  0.00021 -0.00057 -0.00031
   1.67230  0.63837 -0.01231 -0.94433  0.000612  0.000236  0.000340    2.5978    1.5749  0.00021 -0.00058 -0.00031
   1.68805  0.65411 -0.01181 -0.94395  0.000622  0.000239  0.000334    2.6001    1.5747  0.00021 -0.00059 -0.00032
   1.70380  0.66985 -0.01130 -0.94357  0.000631  0.000242  0.000328    2.6021    1.5745  0.00022 -0.00060 -0.00032
   1.71955  0.68560 -0.01079 -0.94319  0.000640  0.000246  0.000322    2.6039    1.5743  0.00022 -0.00060 -0.00032
   1.73529  0.70133 -0.01029 -0.94281  0.000649  0.000249  0.000317    2.6057    1.5742  0.00022 -0.00061 -0.00033
   1.75104  0.71707 -0.00978 -0.94242  0.000658  0.000252  0.000312    2.6073    1.5740  0.00022 -0.00062 -0.00033
   1.76678  0.73280 -0.00928 -0.94202  0.000667  0.000256  0.000307    2.6091    1.5738  0.00023 -0.00063 -0.00034
   1.78252  0.74854 -0.00878 -0.94162  0.000676  0.000259  0.000302    2.6110    1.5737  0.00023 -0.00064 -0.00034
   1.79826  0.76427 -0.00828 -0.94120  0.000685  0.000262  0.000297    2.6131    1.5735  0.00023 -0.00064 -0.00034
   1.81400  0.78000 -0.00779 -0.94075  0.000694  0.000265  0.000293    2.6157    1.5732  0.00023 -0.00065 -0.00035
   1.82973  0.79573 -0.00730 -0.94028  0.000703  0.000268  0.000288    2.6190    1.5729  0.00024 -0.00066 -0.00035
   1.84547  0.81146 -0.00681 -0.93975  0.000713  0.000272  0.000282    2.6230    1.5726  0.00024 -0.00067 -0.00035
   1.86121  0.82719 -0.00632 -0.93918  0.000723  0.000275  0.000276    2.6282    1.5721  0.00024 -0.00068 -0.00036
   1.87695  0.84292 -0.00584 -0.93852  0.000733  0.000278  0.000270    2.6348    1.5715  0.00025 -0.00069 -0.00036
   1.89269  0.85866 -0.00536 -0.93777  0.000745  0.000282  0.000263    2.6434    1.5707  0.00025 -0.00070 -0.00036
   1.90844  0.87439 -0.00488 -0.93690  0.000757  0.000285  0.000255    2.6546    1.5697  0.00025 -0.00071 -0.00037
   1.92418  0.89013 -0.00440 -0.93587  0.000771  0.000289  0.000246    2.6693    1.5685  0.00025 -0.00072 -0.00037
   1.93991  0.90585 -0.00393 -0.93464  0.000787  0.000293  0.000235    2.6885    1.5669  0.00026 -0.00074 -0.00037
   1.95561  0.92154 -0.00345 -0.93319  0.000806  0.000297  0.000222    2.7135    1.5649  0.00026 -0.00075 -0.00038
   1.97122  0.93714 -0.00298 -0.93149  0.000828  0.000302  0.000207    2.7453    1.5624  0.00026 -0.00077 -0.00038
   1.98658  0.95250 -0.00251 -0.92965  0.000852  0.000306  0.000192    2.7812    1.5598  0.00026 -0.00079 -0.00038
   2.00132  0.96724 -0.00206 -0.92813  0.000870  0.000310  0.000182    2.8037    1.5582  0.00027 -0.00081 -0.00039
   2.01478  0.98068 -0.00165 -0.92177  0.000829  0.000323  0.000427    2.5692    1.5258  0.00027 -0.00076 -0.00039
   2.02615  0.99205 -0.00130 -0.90574  0.000749  0.000353  0.000891    2.1210    1.5742  0.00029 -0.00068 -0.00041
   2.03410  1.00000 -0.00105 -0.90039  0.000673  0.000367  0.001422    1.8352    1.6283  0.00030 -0.00061 -0.00044
   2.03410  1.00010 -0.00001  0.90039  0.007616  0.003277  0.000000    2.3243
   2.04204  1.00801 -0.00065  0.87827  0.006558  0.003625  0.000000    1.8088
   2.05112  1.01707 -0.00128  0.89321  0.005730  0.003403  0.000000    1.6836
   2.06149  1.02742 -0.00192  0.90654  0.005124  0.003225  0.000000    1.5889
   2.07336  1.03927 -0.00260  0.91801  0.004667  0.003084  0.000000    1.5133
   2.08692  1.05281 -0.00331  0.92783  0.004309  0.002972  0.000000    1.4499
   2.10243  1.06831 -0.00405  0.93626  0.004019  0.002881  0.000000    1.3949
   2.12017  1.08603 -0.00482  0.94358  0.003778  0.002807  0.000000    1.3461
   2.14045  1.10629 -0.00561  0.95001  0.003573  0.002744  0.000000    1.3022
   2.16363  1.12946 -0.00642  0.95570  0.003397  0.002691  0.000000    1.2626
   2.19014  1.15596 -0.00724  0.96079  0.003245  0.002645  0.000000    1.2269
   2.22045  1.18626 -0.00805  0.96536  0.003113  0.002605  0.000000    1.1950
   2.25511  1.22091 -0.00884  0.96948  0.002998  0.002570  0.000000    1.1666
   2.29474  1.26053 -0.00959  0.97320  0.002899  0.002539  0.000000    1.1416
   2.34005  1.30583 -0.01025  0.97656  0.002813  0.002512  0.000000    1.1200
   2.39185  1.35763 -0.01081  0.97958  0.002740  0.002488  0.000000    1.1015
   2.45108  1.41686 -0.01122  0.98229  0.002678  0.002467  0.000000    1.0858
   2.51881  1.48458 -0.01143  0.98472  0.002626  0.002448  0.000000    1.0727
