#    s        x        y     Ue/Vinf    Dstar     Theta      Cf       H       H*        P         m          K          tau         Di
   0.00000  1.00000  0.00105  0.90619  0.005356  0.003172  0.001034    1.6883    1.6497  0.00261  0.00485  0.00389
   0.00793  0.99223  0.00262  0.92123  0.004896  0.002982  0.001173    1.6422    1.6637  0.00253  0.00451  0.00388
   0.01918  0.98119  0.00481  0.94131  0.004375  0.002750  0.001360    1.5910    1.6805  0.00244  0.00412  0.00385
   0.03241  0.96821  0.00736  0.96179  0.003929  0.002536  0.001551    1.5489    1.6952  0.00235  0.00378  0.00383
   0.04686  0.95402  0.01009  0.98107  0.003568  0.002353  0.001732    1.5167    1.7072  0.00226  0.00350  0.00379
   0.06190  0.93925  0.01288  0.99849  0.003281  0.002198  0.001894    1.4925    1.7166  0.00219  0.00328  0.00376
   0.07717  0.92423  0.01566  1.01408  0.003049  0.002068  0.002040    1.4742    1.7239  0.00213  0.00309  0.00372
   0.09254  0.90911  0.01840  1.02813  0.002857  0.001957  0.002171    1.4602    1.7297  0.00207  0.00294  0.00368
   0.10794  0.89394  0.02109  1.04092  0.002694  0.001859  0.002290    1.4491    1.7343  0.00201  0.00280  0.00364
   0.12335  0.87875  0.02373  1.05270  0.002553  0.001772  0.002400    1.4403    1.7381  0.00196  0.00269  0.00359
   0.13878  0.86355  0.02632  1.06365  0.002427  0.001694  0.002502    1.4330    1.7412  0.00192  0.00258  0.00355
   0.15421  0.84833  0.02886  1.07393  0.002315  0.001622  0.002599    1.4271    1.7439  0.00187  0.00249  0.00350
   0.16963  0.83310  0.03134  1.08365  0.002212  0.001555  0.002690    1.4222    1.7461  0.00183  0.00240  0.00346
   0.18506  0.81787  0.03377  1.09291  0.002118  0.001493  0.002778    1.4180    1.7480  0.00178  0.00231  0.00341
   0.20050  0.80262  0.03615  1.10177  0.002030  0.001435  0.002863    1.4145    1.7496  0.00174  0.00224  0.00336
   0.21593  0.78736  0.03847  1.11031  0.001947  0.001379  0.002945    1.4116    1.7510  0.00170  0.00216  0.00331
   0.23136  0.77210  0.04075  1.11856  0.001870  0.001327  0.003025    1.4091    1.7522  0.00166  0.00209  0.00325
   0.24679  0.75683  0.04296  1.12657  0.001796  0.001276  0.003104    1.4070    1.7532  0.00162  0.00202  0.00320
   0.26221  0.74156  0.04513  1.13438  0.001726  0.001228  0.003181    1.4053    1.7541  0.00158  0.00196  0.00314
   0.27764  0.72628  0.04724  1.14202  0.001658  0.001181  0.003258    1.4039    1.7548  0.00154  0.00189  0.00309
   0.29306  0.71099  0.04929  1.14952  0.001594  0.001136  0.003335    1.4027    1.7555  0.00150  0.00183  0.00303
   0.30849  0.69570  0.05129  1.15690  0.001531  0.001092  0.003411    1.4017    1.7561  0.00146  0.00177  0.00297
   0.32390  0.68040  0.05324  1.16417  0.001471  0.001050  0.003487    1.4010    1.7565  0.00142  0.00171  0.00291
   0.33932  0.66511  0.05513  1.17138  0.001412  0.001008  0.003564    1.4004    1.7569  0.00138  0.00165  0.00285
   0.35473  0.64981  0.05696  1.17852  0.001355  0.000968  0.003642    1.4000    1.7572  0.00134  0.00160  0.00278
   0.37013  0.63451  0.05873  1.18561  0.001299  0.000928  0.003721    1.3998    1.7575  0.00130  0.00154  0.00272
   0.38553  0.61920  0.06045  1.19268  0.001245  0.000889  0.003801    1.3998    1.7577  0.00126  0.00148  0.00265
   0.40092  0.60390  0.06211  1.19974  0.001191  0.000851  0.003883    1.3999    1.7578  0.00123  0.00143  0.00258
   0.41630  0.58860  0.06370  1.20679  0.001139  0.000814  0.003967    1.4001    1.7579  0.00118  0.00137  0.00251
   0.43168  0.57330  0.06523  1.21386  0.001088  0.000777  0.004053    1.4004    1.7580  0.00114  0.00132  0.00244
   0.44705  0.55800  0.06670  1.22096  0.001037  0.000741  0.004141    1.4009    1.7580  0.00110  0.00127  0.00237
   0.46241  0.54271  0.06810  1.22810  0.000988  0.000705  0.004233    1.4015    1.7580  0.00106  0.00121  0.00229
   0.47776  0.52742  0.06944  1.23529  0.000939  0.000669  0.004329    1.4022    1.7580  0.00102  0.00116  0.00222
   0.49310  0.51213  0.07071  1.24255  0.000890  0.000635  0.004429    1.4030    1.7579  0.00098  0.00111  0.00214
   0.50842  0.49685  0.07191  1.24989  0.000842  0.000600  0.004534    1.4038    1.7579  0.00094  0.00105  0.00206
   0.52374  0.48158  0.07304  1.25734  0.000795  0.000566  0.004646    1.4047    1.7579  0.00089  0.00100  0.00198
   0.53904  0.46631  0.07409  1.26490  0.000748  0.000532  0.004766    1.4055    1.7579  0.00085  0.00095  0.00189
   0.55433  0.45106  0.07506  1.27259  0.000701  0.000499  0.004896    1.4061    1.7581  0.00081  0.00089  0.00181
   0.56960  0.43581  0.07596  1.28045  0.000654  0.000465  0.005038    1.4066    1.7584  0.00076  0.00084  0.00172
   0.58485  0.42058  0.07678  1.28849  0.000608  0.000432  0.005197    1.4066    1.7589  0.00072  0.00078  0.00163
   0.60009  0.40536  0.07751  1.29673  0.000561  0.000399  0.005376    1.4061    1.7598  0.00067  0.00073  0.00153
   0.61531  0.39015  0.07815  1.30522  0.000514  0.000366  0.005581    1.4049    1.7611  0.00062  0.00067  0.00143
   0.63050  0.37497  0.07871  1.31397  0.000467  0.000333  0.005817    1.4030    1.7628  0.00057  0.00061  0.00133
   0.64567  0.35980  0.07917  1.32301  0.000419  0.000299  0.006080    1.4016    1.7645  0.00052  0.00055  0.00122
   0.66082  0.34467  0.07954  1.33235  0.000373  0.000266  0.006331    1.4050    1.7644  0.00047  0.00050  0.00111
   0.67591  0.32957  0.07980  1.34214  0.000333  0.000233  0.006395    1.4295    1.7559  0.00042  0.00045  0.00099
   0.69093  0.31456  0.07996  1.35270  0.000310  0.000202  0.005649    1.5361    1.7178  0.00037  0.00042  0.00086
   0.70577  0.29971  0.08002  1.37098  0.000330  0.000175  0.003356    1.8847    1.6237  0.00033  0.00045  0.00073
   0.72032  0.28517  0.07990  1.40449  0.000451  0.000151  0.000415    2.9775    1.5480  0.00030  0.00063  0.00065
   0.73471  0.27078  0.07956  1.41121  0.000433  0.000146  0.000445    2.9610    1.5488  0.00029  0.00061  0.00064
   0.74902  0.25648  0.07901  1.41933  0.000406  0.000141  0.000529    2.8908    1.5527  0.00028  0.00058  0.00062
   0.76328  0.24224  0.07822  1.42723  0.000381  0.000135  0.000623    2.8238    1.5569  0.00027  0.00054  0.00061
   0.77749  0.22807  0.07721  1.43446  0.000358  0.000129  0.000717    2.7690    1.5607  0.00027  0.00051  0.00060
   0.79166  0.21396  0.07596  1.44091  0.000338  0.000124  0.000807    2.7251    1.5640  0.00026  0.00049  0.00058
   0.80578  0.19992  0.07447  1.44656  0.000320  0.000119  0.000894    2.6897    1.5668  0.00025  0.00046  0.00056
   0.81984  0.18596  0.07274  1.45145  0.000303  0.000114  0.000980    2.6611    1.5692  0.00024  0.00044  0.00055
   0.83385  0.17209  0.07076  1.45559  0.000288  0.000109  0.001064    2.6380    1.5712  0.00023  0.00042  0.00053
   0.84778  0.15834  0.06853  1.45903  0.000273  0.000104  0.001148    2.6192    1.5729  0.00022  0.00040  0.00051
   0.86163  0.14471  0.06604  1.46181  0.000259  0.000099  0.001234    2.6043    1.5743  0.00021  0.00038  0.00049
   0.87538  0.13124  0.06330  1.46397  0.000246  0.000095  0.001321    2.5926    1.5754  0.00020  0.00036  0.00047
   0.88900  0.11796  0.06028  1.46558  0.000232  0.000090  0.001412    2.5839    1.5762  0.00019  0.00034  0.00045
   0.90246  0.10490  0.05701  1.46672  0.000219  0.000085  0.001508    2.5778    1.5768  0.00018  0.00032  0.00042
   0.91569  0.09215  0.05347  1.46747  0.000206  0.000080  0.001611    2.5742    1.5772  0.00017  0.00030  0.00040
   0.92860  0.07980  0.04970  1.46796  0.000193  0.000075  0.001726    2.5726    1.5773  0.00016  0.00028  0.00037
   0.94105  0.06801  0.04572  1.46834  0.000179  0.000070  0.001856    2.5729    1.5773  0.00015  0.00026  0.00035
   0.95282  0.05698  0.04161  1.46877  0.000166  0.000064  0.002007    2.5742    1.5772  0.00014  0.00024  0.00032
   0.96364  0.04697  0.03750  1.46939  0.000152  0.000059  0.002186    2.5756    1.5770  0.00013  0.00022  0.00029
   0.97328  0.03820  0.03351  1.47020  0.000138  0.000054  0.002400    2.5758    1.5770  0.00012  0.00020  0.00027
   0.98159  0.03077  0.02978  1.47106  0.000125  0.000049  0.002657    2.5733    1.5773  0.00011  0.00018  0.00024
   0.98863  0.02462  0.02636  1.47166  0.000113  0.000044  0.002965    2.5673    1.5778  0.00010  0.00017  0.00022
   0.99453  0.01959  0.02327  1.47155  0.000102  0.000040  0.003334    2.5572    1.5789  0.00009  0.00015  0.00020
   0.99952  0.01547  0.02046  1.47012  0.000091  0.000036  0.003775    2.5428    1.5803  0.00008  0.00013  0.00018
   1.00377  0.01208  0.01790  1.46658  0.000081  0.000032  0.004303    2.5243    1.5823  0.00007  0.00012  0.00016
   1.00744  0.00928  0.01553  1.45989  0.000072  0.000029  0.004937    2.5016    1.5847  0.00006  0.00011  0.00014
   1.01065  0.00696  0.01331  1.44850  0.000064  0.000026  0.005694    2.4751    1.5876  0.00005  0.00009  0.00012
   1.01349  0.00504  0.01122  1.43021  0.000056  0.000023  0.006588    2.4452    1.5911  0.00005  0.00008  0.00011
   1.01604  0.00347  0.00921  1.40185  0.000049  0.000021  0.007620    2.4122    1.5951  0.00004  0.00007  0.00009
   1.01835  0.00221  0.00727  1.35902  0.000043  0.000018  0.008739    2.3783    1.5995  0.00003  0.00006  0.00007
   1.02047  0.00124  0.00539  1.29572  0.000038  0.000016  0.009901    2.3395    1.6047  0.00003  0.00005  0.00006
   1.02242  0.00055  0.00356  1.20584  0.000033  0.000014  0.010677    2.3122    1.6085  0.00002  0.00004  0.00004
   1.02425  0.00014  0.00178  1.08327  0.000030  0.000013  0.011217    2.2664    1.6153  0.00002  0.00003  0.00003
   1.02595  0.00000  0.00008  0.93146  0.000028  0.000012  0.010271    2.2681    1.6150  0.00001  0.00003  0.00002
   1.02764  0.00012 -0.00160  0.74954  0.000026  0.000012  0.009224    2.2238    1.6220  0.00001  0.00002  0.00001
   1.02941  0.00054 -0.00332  0.53337  0.000026  0.000012  0.006435    2.2446    1.6187  0.00000  0.00001  0.00000
   1.03126  0.00130 -0.00501  0.30224  0.000026  0.000012  0.003769    2.2100    1.6242  0.00000  0.00001  0.00000
   1.03324  0.00241 -0.00665  0.08403  0.000031  0.000014  0.000874    2.2295    1.6211  0.00000  0.00000  0.00000
   1.03535  0.00385 -0.00820 -0.10443  0.000031  0.000014  0.001086    2.2295    1.6211  0.00000 -0.00000 -0.00000
   1.03765  0.00562 -0.00966 -0.25872  0.000038  0.000017  0.002107    2.2726    1.6143  0.00000 -0.00001 -0.00000
   1.04017  0.00773 -0.01103 -0.38152  0.000042  0.000019  0.002890    2.2413    1.6192  0.00000 -0.00002 -0.00000
   1.04296  0.01020 -0.01233 -0.48000  0.000049  0.000021  0.002934    2.3025    1.6099  0.00000 -0.00002 -0.00000
   1.04611  0.01309 -0.01357 -0.55866  0.000055  0.000024  0.003076    2.2879    1.6120  0.00001 -0.00003 -0.00001
   1.04970  0.01648 -0.01477 -0.62301  0.000064  0.000027  0.002866    2.3265    1.6065  0.00001 -0.00004 -0.00001
   1.05386  0.02048 -0.01593 -0.67564  0.000072  0.000031  0.002722    2.3331    1.6056  0.00001 -0.00005 -0.00002
   1.05877  0.02526 -0.01705 -0.71949  0.000083  0.000035  0.002475    2.3571    1.6023  0.00002 -0.00006 -0.00002
   1.06465  0.03103 -0.01815 -0.75596  0.000094  0.000040  0.002241    2.3740    1.6000  0.00002 -0.00007 -0.00003
   1.07176  0.03807 -0.01919 -0.78622  0.000108  0.000045  0.001995    2.3945    1.5974  0.00003 -0.00008 -0.00003
   1.08035  0.04660 -0.02015 -0.81079  0.000124  0.000051  0.001760    2.4146    1.5948  0.00003 -0.00010 -0.00004
   1.09056  0.05678 -0.02097 -0.83006  0.000141  0.000058  0.001544    2.4351    1.5923  0.00004 -0.00012 -0.00005
   1.10230  0.06850 -0.02162 -0.84450  0.000160  0.000065  0.001354    2.4549    1.5900  0.00005 -0.00014 -0.00006
   1.11528  0.08148 -0.02207 -0.85486  0.000181  0.000073  0.001195    2.4733    1.5879  0.00005 -0.00015 -0.00007
   1.12916  0.09535 -0.02231 -0.86206  0.000201  0.000081  0.001064    2.4897    1.5860  0.00006 -0.00017 -0.00008
   1.14364  0.10983 -0.02239 -0.86698  0.000221  0.000088  0.000957    2.5040    1.5844  0.00007 -0.00019 -0.00009
   1.15852  0.12471 -0.02234 -0.87034  0.000241  0.000096  0.000871    2.5160    1.5831  0.00007 -0.00021 -0.00010
   1.17368  0.13988 -0.02218 -0.87268  0.000260  0.000103  0.000801    2.5256    1.5821  0.00008 -0.00023 -0.00011
   1.18905  0.15524 -0.02196 -0.87436  0.000278  0.000110  0.000745    2.5327    1.5814  0.00008 -0.00024 -0.00012
   1.20458  0.17076 -0.02169 -0.87568  0.000295  0.000116  0.000700    2.5369    1.5809  0.00009 -0.00026 -0.00012
   1.22020  0.18639 -0.02140 -0.87685  0.000311  0.000123  0.000664    2.5382    1.5808  0.00009 -0.00027 -0.00013
   1.23585  0.20204 -0.02111 -0.87804  0.000326  0.000128  0.000636    2.5363    1.5810  0.00010 -0.00029 -0.00014
   1.25147  0.21765 -0.02083 -0.87940  0.000339  0.000134  0.000617    2.5308    1.5816  0.00010 -0.00030 -0.00014
   1.26704  0.23322 -0.02058 -0.88107  0.000350  0.000139  0.000604    2.5213    1.5826  0.00011 -0.00031 -0.00015
   1.28255  0.24873 -0.02036 -0.88319  0.000359  0.000143  0.000599    2.5072    1.5841  0.00011 -0.00032 -0.00016
   1.29802  0.26419 -0.02019 -0.88599  0.000366  0.000147  0.000602    2.4872    1.5863  0.00012 -0.00032 -0.00016
   1.31344  0.27962 -0.02007 -0.88973  0.000370  0.000150  0.000616    2.4602    1.5894  0.00012 -0.00033 -0.00017
   1.32884  0.29502 -0.02002 -0.89555  0.000367  0.000152  0.000656    2.4127    1.5951  0.00012 -0.00033 -0.00017
   1.34424  0.31041 -0.02000 -0.90437  0.000357  0.000152  0.000726    2.3479    1.6035  0.00012 -0.00032 -0.00018
   1.35966  0.32583 -0.01993 -0.90960  0.000366  0.000155  0.000701    2.3634    1.6014  0.00013 -0.00033 -0.00019
   1.37511  0.34129 -0.01981 -0.91356  0.000378  0.000158  0.000667    2.3868    1.5984  0.00013 -0.00035 -0.00019
   1.39060  0.35677 -0.01965 -0.91657  0.000391  0.000162  0.000632    2.4113    1.5952  0.00014 -0.00036 -0.00020
   1.40611  0.37228 -0.01944 -0.91896  0.000403  0.000166  0.000600    2.4328    1.5926  0.00014 -0.00037 -0.00020
   1.42164  0.38781 -0.01919 -0.92088  0.000416  0.000170  0.000572    2.4512    1.5904  0.00014 -0.00038 -0.00021
   1.43720  0.40337 -0.01891 -0.92244  0.000428  0.000173  0.000548    2.4668    1.5886  0.00015 -0.00039 -0.00022
   1.45277  0.41894 -0.01859 -0.92372  0.000440  0.000177  0.000527    2.4799    1.5871  0.00015 -0.00041 -0.00022
   1.46837  0.43453 -0.01825 -0.92477  0.000451  0.000181  0.000508    2.4912    1.5858  0.00015 -0.00042 -0.00023
   1.48398  0.45014 -0.01788 -0.92563  0.000462  0.000185  0.000491    2.5010    1.5848  0.00016 -0.00043 -0.00023
   1.49961  0.46576 -0.01749 -0.92633  0.000473  0.000189  0.000476    2.5094    1.5838  0.00016 -0.00044 -0.00024
   1.51525  0.48140 -0.01708 -0.92691  0.000484  0.000192  0.000462    2.5169    1.5830  0.00017 -0.00045 -0.00024
   1.53091  0.49705 -0.01665 -0.92738  0.000495  0.000196  0.000449    2.5234    1.5823  0.00017 -0.00046 -0.00025
   1.54658  0.51271 -0.01620 -0.92776  0.000505  0.000200  0.000437    2.5292    1.5817  0.00017 -0.00047 -0.00025
   1.56226  0.52839 -0.01575 -0.92807  0.000515  0.000203  0.000426    2.5343    1.5812  0.00018 -0.00048 -0.00026
   1.57796  0.54408 -0.01528 -0.92832  0.000525  0.000207  0.000416    2.5388    1.5807  0.00018 -0.00049 -0.00026
   1.59366  0.55977 -0.01480 -0.92852  0.000535  0.000210  0.000407    2.5428    1.5803  0.00018 -0.00050 -0.00027
   1.60937  0.57548 -0.01431 -0.92869  0.000545  0.000214  0.000398    2.5463    1.5800  0.00018 -0.00051 -0.00027
   1.62509  0.59119 -0.01382 -0.92882  0.000554  0.000217  0.000390    2.5494    1.5797  0.00019 -0.00051 -0.00028
   1.64082  0.60691 -0.01332 -0.92892  0.000563  0.000221  0.000382    2.5520    1.5794  0.00019 -0.00052 -0.00028
   1.65656  0.62264 -0.01282 -0.92900  0.000573  0.000224  0.000375    2.5543    1.5792  0.00019 -0.00053 -0.00028
   1.67230  0.63837 -0.01231 -0.92907  0.000581  0.000227  0.000369    2.5563    1.5790  0.00020 -0.00054 -0.00029
   1.68805  0.65411 -0.01181 -0.92912  0.000590  0.000231  0.000363    2.5580    1.5788  0.00020 -0.00055 -0.00029
   1.70380  0.66985 -0.01130 -0.92916  0.000599  0.000234  0.000357    2.5595    1.5786  0.00020 -0.00056 -0.00030
   1.71955  0.68560 -0.01079 -0.92919  0.000607  0.000237  0.000351    2.5609    1.5785  0.00020 -0.00056 -0.00030
   1.73529  0.70133 -0.01029 -0.92921  0.000616  0.000240  0.000346    2.5621    1.5784  0.00021 -0.00057 -0.00030
   1.75104  0.71707 -0.00978 -0.92921  0.000624  0.000243  0.000341    2.5633    1.5782  0.00021 -0.00058 -0.00031
   1.76678  0.73280 -0.00928 -0.92920  0.000632  0.000247  0.000336    2.5646    1.5781  0.00021 -0.00059 -0.00031
   1.78252  0.74854 -0.00878 -0.92917  0.000641  0.000250  0.000331    2.5660    1.5780  0.00022 -0.00060 -0.00032
   1.79826  0.76427 -0.00828 -0.92912  0.000649  0.000253  0.000326    2.5677    1.5778  0.00022 -0.00060 -0.00032
   1.81400  0.78000 -0.00779 -0.92903  0.000657  0.000256  0.000321    2.5699    1.5776  0.00022 -0.00061 -0.00032
   1.82973  0.79573 -0.00730 -0.92891  0.000666  0.000259  0.000316    2.5726    1.5773  0.00022 -0.00062 -0.00033
   1.84547  0.81146 -0.00681 -0.92872  0.000675  0.000262  0.000311    2.5761    1.5770  0.00023 -0.00063 -0.00033
   1.86121  0.82719 -0.00632 -0.92847  0.000684  0.000265  0.000305    2.5808    1.5765  0.00023 -0.00064 -0.00033
   1.87695  0.84292 -0.00584 -0.92813  0.000694  0.000268  0.000298    2.5870    1.5759  0.00023 -0.00064 -0.00034
   1.89269  0.85866 -0.00536 -0.92766  0.000705  0.000272  0.000291    2.5954    1.5751  0.00023 -0.00065 -0.00034
   1.90844  0.87439 -0.00488 -0.92703  0.000717  0.000275  0.000282    2.6066    1.5741  0.00024 -0.00066 -0.00034
   1.92418  0.89013 -0.00440 -0.92619  0.000731  0.000279  0.000271    2.6221    1.5726  0.00024 -0.00068 -0.00035
   1.93991  0.90585 -0.00393 -0.92506  0.000748  0.000283  0.000258    2.6437    1.5707  0.00024 -0.00069 -0.00035
   1.95561  0.92154 -0.00345 -0.92354  0.000768  0.000287  0.000242    2.6748    1.5680  0.00025 -0.00071 -0.00035
   1.97122  0.93714 -0.00298 -0.92148  0.000796  0.000292  0.000220    2.7213    1.5643  0.00025 -0.00073 -0.00036
   1.98658  0.95250 -0.00251 -0.91871  0.000834  0.000298  0.000191    2.7938    1.5589  0.00025 -0.00077 -0.00036
   2.00132  0.96724 -0.00206 -0.91511  0.000890  0.000306  0.000151    2.9117    1.5515  0.00026 -0.00081 -0.00036
   2.01478  0.98068 -0.00165 -0.91109  0.000970  0.000314  0.000103    3.0941    1.5427  0.00026 -0.00088 -0.00037
   2.02615  0.99205 -0.00130 -0.90742  0.001082  0.000321  0.000051    3.3719    1.5342  0.00026 -0.00098 -0.00037
   2.03410  1.00000 -0.00105 -0.90619  0.001101  0.000323  0.000046    3.4057    1.5047  0.00027 -0.00100 -0.00036
   2.03410  1.00010 -0.00001  0.90619  0.008536  0.003496  0.000000    2.4418
   2.04204  1.00801 -0.00065  0.88773  0.007561  0.003812  0.000000    1.9833
   2.05112  1.01707 -0.00126  0.89817  0.006696  0.003642  0.000000    1.8385
   2.06149  1.02742 -0.00189  0.90856  0.006010  0.003487  0.000000    1.7236
   2.07336  1.03927 -0.00253  0.91830  0.005463  0.003353  0.000000    1.6295
   2.08692  1.05282 -0.00320  0.92716  0.005020  0.003239  0.000000    1.5498
   2.10243  1.06832 -0.00389  0.93509  0.004655  0.003144  0.000000    1.4807
   2.12017  1.08604 -0.00459  0.94216  0.004349  0.003063  0.000000    1.4196
   2.14045  1.10630 -0.00529  0.94846  0.004088  0.002995  0.000000    1.3650
   2.16363  1.12948 -0.00598  0.95412  0.003863  0.002936  0.000000    1.3160
   2.19014  1.15598 -0.00666  0.95921  0.003670  0.002885  0.000000    1.2721
   2.22045  1.18629 -0.00729  0.96382  0.003502  0.002840  0.000000    1.2329
   2.25511  1.22094 -0.00785  0.96800  0.003356  0.002801  0.000000    1.1982
   2.29474  1.26056 -0.00832  0.97179  0.003230  0.002766  0.000000    1.1677
   2.34005  1.30587 -0.00865  0.97522  0.003122  0.002736  0.000000    1.1414
   2.39185  1.35767 -0.00879  0.97833  0.003030  0.002709  0.000000    1.1188
   2.45108  1.41690 -0.00870  0.98113  0.002952  0.002685  0.000000    1.0997
   2.51881  1.48463 -0.00829  0.98364  0.002887  0.002663  0.000000    1.0838
